7997.02602,0.742014
7995.09763,0.758376
7993.16925,0.770152
7991.24086,0.769504
7989.31247,0.765562
7987.38408,0.757892
7985.45569,0.755242
7983.52731,0.765322
7981.59892,0.776460
7979.67053,0.777258
7977.74214,0.770321
7975.81375,0.762223
7973.88536,0.753460
7971.95698,0.744249
7970.02859,0.746090
7968.10020,0.761439
7966.17181,0.767066
7964.24342,0.755549
7962.31503,0.749484
7960.38665,0.751278
7958.45826,0.747701
7956.52987,0.748238
7954.60148,0.757457
7952.67309,0.765116
7950.74471,0.773219
7948.81632,0.781582
7946.88793,0.778919
7944.95954,0.771114
7943.03115,0.768454
7941.10276,0.765646
7939.17438,0.762731
7937.24599,0.768527
7935.31760,0.779623
7933.38921,0.783689
7931.46082,0.780706
7929.53243,0.781449
7927.60405,0.786738
7925.67566,0.787476
7923.74727,0.782952
7921.81888,0.778915
7919.89049,0.776156
7917.96211,0.780263
7916.03372,0.791678
7914.10533,0.792401
7912.17694,0.780696
7910.24855,0.779857
7908.32016,0.786871
7906.39178,0.782167
7904.46339,0.770210
7902.53500,0.763973
7900.60661,0.766658
7898.67822,0.770198
7896.74983,0.759056
7894.82145,0.741469
7892.89306,0.742666
7890.96467,0.756885
7889.03628,0.757458
7887.10789,0.748972
7885.17950,0.753877
7883.25112,0.767799
7881.32273,0.769088
7879.39434,0.759935
7877.46595,0.756736
7875.53756,0.758282
7873.60918,0.764083
7871.68079,0.772455
7869.75240,0.774252
7867.82401,0.773655
7865.89562,0.779225
7863.96723,0.786797
7862.03885,0.787064
7860.11046,0.775708
7858.18207,0.759998
7856.25368,0.753773
7854.32529,0.763325
7852.39690,0.776259
7850.46852,0.779498
7848.54013,0.779438
7846.61174,0.779171
7844.68335,0.775606
7842.75496,0.773631
7840.82658,0.775507
7838.89819,0.777057
7836.96980,0.777606
7835.04141,0.781798
7833.11302,0.785690
7831.18463,0.774706
7829.25625,0.756249
7827.32786,0.757079
7825.39947,0.772947
7823.47108,0.777646
7821.54269,0.773411
7819.61430,0.776168
7817.68592,0.785266
7815.75753,0.795744
7813.82914,0.804401
7811.90075,0.806055
7809.97236,0.800911
7808.04398,0.803583
7806.11559,0.817174
7804.18720,0.815553
7802.25881,0.791362
7800.33042,0.771224
7798.40203,0.770316
7796.47365,0.779581
7794.54526,0.784161
7792.61687,0.779647
7790.68848,0.770195
7788.76009,0.766243
7786.83170,0.775997
7784.90332,0.789247
7782.97493,0.792165
7781.04654,0.787645
7779.11815,0.783592
7777.18976,0.778635
7775.26138,0.773830
7773.33299,0.774331
7771.40460,0.776583
7769.47621,0.780386
7767.54782,0.788197
7765.61943,0.788126
7763.69105,0.777811
7761.76266,0.771405
7759.83427,0.770627
7757.90588,0.770149
7755.97749,0.770349
7754.04910,0.772628
7752.12072,0.775208
7750.19233,0.773842
7748.26394,0.771097
7746.33555,0.770460
7744.40716,0.773220
7742.47878,0.783971
7740.55039,0.796886
7738.62200,0.799443
7736.69361,0.793049
7734.76522,0.786715
7732.83683,0.786174
7730.90845,0.791053
7728.98006,0.794595
7727.05167,0.793025
7725.12328,0.790235
7723.19489,0.790353
7721.26650,0.792086
7719.33812,0.791765
7717.40973,0.788833
7715.48134,0.781288
7713.55295,0.768895
7711.62456,0.765746
7709.69618,0.776532
7707.76779,0.783381
7705.83940,0.780468
7703.91101,0.776519
7701.98262,0.774940
7700.05423,0.777754
7698.12585,0.782064
7696.19746,0.784042
7694.26907,0.788365
7692.34068,0.795943
7690.41229,0.798328
7688.48390,0.792524
7686.55552,0.786827
7684.62713,0.786211
7682.69874,0.783553
7680.77035,0.778063
7678.84196,0.780716
7676.91358,0.788991
7674.98519,0.789348
7673.05680,0.785105
7671.12841,0.787442
7669.20002,0.789562
7667.27163,0.786955
7665.34325,0.790806
7663.41486,0.799550
7661.48647,0.802058
7659.55808,0.795014
7657.62969,0.780470
7655.70130,0.768899
7653.77292,0.768907
7651.84453,0.774725
7649.91614,0.779384
7647.98775,0.784687
7646.05936,0.787632
7644.13098,0.782686
7642.20259,0.781377
7640.27420,0.791808
7638.34581,0.800084
7636.41742,0.795209
7634.48903,0.782243
7632.56065,0.771466
7630.63226,0.769530
7628.70387,0.774896
7626.77548,0.781363
7624.84709,0.787299
7622.91870,0.791096
7620.99032,0.789269
7619.06193,0.789822
7617.13354,0.797720
7615.20515,0.800428
7613.27676,0.795419
7611.34838,0.792844
7609.41999,0.789251
7607.49160,0.780057
7605.56321,0.772828
7603.63482,0.770680
7601.70643,0.770130
7599.77805,0.772445
7597.84966,0.779874
7595.92127,0.786725
7593.99288,0.786544
7592.06449,0.782227
7590.13610,0.779859
7588.20772,0.781524
7586.27933,0.785685
7584.35094,0.789008
7582.42255,0.788467
7580.49416,0.784748
7578.56578,0.785601
7576.63739,0.795483
7574.70900,0.803790
7572.78061,0.799900
7570.85222,0.789981
7568.92383,0.784792
7566.99545,0.786962
7565.06706,0.792574
7563.13867,0.792332
7561.21028,0.782258
7559.28189,0.773130
7557.35350,0.774551
7555.42512,0.780746
7553.49673,0.780531
7551.56834,0.776082
7549.63995,0.778040
7547.71156,0.784825
7545.78318,0.787063
7543.85479,0.786949
7541.92640,0.790795
7539.99801,0.790957
7538.06962,0.783936
7536.14123,0.782860
7534.21285,0.789258
7532.28446,0.792368
7530.35607,0.790035
7528.42768,0.782568
7526.49929,0.773217
7524.57090,0.770579
7522.64252,0.774657
7520.71413,0.780062
7518.78574,0.784723
7516.85735,0.787672
7514.92896,0.789970
7513.00058,0.792883
7511.07219,0.794144
7509.14380,0.793056
7507.21541,0.792514
7505.28702,0.791347
7503.35863,0.787448
7501.43025,0.785043
7499.50186,0.786959
7497.57347,0.790488
7495.64508,0.792123
7493.71669,0.790500
7491.78830,0.788536
7489.85992,0.789808
7487.93153,0.794010
7486.00314,0.799418
7484.07475,0.802410
7482.14636,0.797727
7480.21798,0.786981
7478.28959,0.780537
7476.36120,0.783641
7474.43281,0.788672
7472.50442,0.788885
7470.57603,0.787054
7468.64765,0.786912
7466.71926,0.788401
7464.79087,0.788885
7462.86248,0.786867
7460.93409,0.783340
7459.00570,0.783004
7457.07732,0.790261
7455.14893,0.799014
7453.22054,0.802476
7451.29215,0.800945
7449.36376,0.795253
7447.43537,0.790059
7445.50699,0.790093
7443.57860,0.792913
7441.65021,0.793451
7439.72182,0.789622
7437.79343,0.787719
7435.86505,0.791951
7433.93666,0.793841
7432.00827,0.789722
7430.07988,0.785483
7428.15149,0.785118
7426.22310,0.788527
7424.29472,0.791482
7422.36633,0.793016
7420.43794,0.794232
7418.50955,0.794122
7416.58116,0.795307
7414.65277,0.796324
7412.72439,0.793951
7410.79600,0.792826
7408.86761,0.794747
7406.93922,0.795016
7405.01083,0.793487
7403.08245,0.792365
7401.15406,0.787767
7399.22567,0.780855
7397.29728,0.780695
7395.36889,0.787031
7393.44050,0.791529
7391.51212,0.789786
7389.58373,0.784799
7387.65534,0.783808
7385.72695,0.786920
7383.79856,0.788296
7381.87017,0.788035
7379.94179,0.789349
7378.01340,0.790945
7376.08501,0.789214
7374.15662,0.785311
7372.22823,0.784141
7370.29985,0.784553
7368.37146,0.783551
7366.44307,0.782707
7364.51468,0.782956
7362.58629,0.784195
7360.65790,0.785461
7358.72952,0.785255
7356.80113,0.785297
7354.87274,0.787265
7352.94435,0.790239
7351.01596,0.793468
7349.08757,0.796144
7347.15919,0.795035
7345.23080,0.788759
7343.30241,0.779495
7341.37402,0.769257
7339.44563,0.764347
7337.51725,0.769841
7335.58886,0.778333
7333.66047,0.783004
7331.73208,0.783714
7329.80369,0.778475
7327.87530,0.769005
7325.94692,0.765139
7324.01853,0.770619
7322.09014,0.780116
7320.16175,0.787955
7318.23336,0.792218
7316.30497,0.792427
7314.37659,0.788155
7312.44820,0.783359
7310.51981,0.781491
7308.59142,0.781562
7306.66303,0.783874
7304.73465,0.788372
7302.80626,0.792777
7300.87787,0.794823
7298.94948,0.793734
7297.02109,0.791144
7295.09270,0.786788
7293.16432,0.783108
7291.23593,0.784558
7289.30754,0.784878
7287.37915,0.780936
7285.45076,0.781976
7283.52237,0.789974
7281.59399,0.794068
7279.66560,0.788495
7277.73721,0.782965
7275.80882,0.782900
7273.88043,0.782932
7271.95205,0.786365
7270.02366,0.793389
7268.09527,0.794292
7266.16688,0.792150
7264.23849,0.791451
7262.31010,0.786855
7260.38172,0.779655
7258.45333,0.776778
7256.52494,0.780518
7254.59655,0.787137
7252.66816,0.791284
7250.73977,0.792561
7248.81139,0.793866
7246.88300,0.795574
7244.95461,0.792249
7243.02622,0.783434
7241.09783,0.781429
7239.16945,0.785579
7237.24106,0.783661
7235.31267,0.777780
7233.38428,0.774762
7231.45589,0.776240
7229.52750,0.780457
7227.59912,0.783874
7225.67073,0.786673
7223.74234,0.790257
7221.81395,0.792032
7219.88556,0.787838
7217.95717,0.780037
7216.02879,0.776143
7214.10040,0.776979
7212.17201,0.779158
7210.24362,0.782297
7208.31523,0.785234
7206.38685,0.785370
7204.45846,0.783849
7202.53007,0.783478
7200.60168,0.783101
7198.67329,0.781574
7196.74490,0.781116
7194.81652,0.781641
7192.88813,0.780349
7190.95974,0.779759
7189.03135,0.783316
7187.10296,0.785318
7185.17457,0.782107
7183.24619,0.779143
7181.31780,0.779570
7179.38941,0.783236
7177.46102,0.786692
7175.53263,0.784825
7173.60425,0.781069
7171.67586,0.780487
7169.74747,0.780841
7167.81908,0.781899
7165.89069,0.785559
7163.96230,0.787759
7162.03392,0.785574
7160.10553,0.783719
7158.17714,0.784419
7156.24875,0.783870
7154.32036,0.782932
7152.39197,0.784656
7150.46359,0.786714
7148.53520,0.787247
7146.60681,0.786988
7144.67842,0.786033
7142.75003,0.785836
7140.82165,0.787258
7138.89326,0.787574
7136.96487,0.785361
7135.03648,0.784313
7133.10809,0.788586
7131.17970,0.796083
7129.25132,0.799131
7127.32293,0.796034
7125.39454,0.793360
7123.46615,0.793147
7121.53776,0.791278
7119.60937,0.785763
7117.68099,0.781425
7115.75260,0.783760
7113.82421,0.788352
7111.89582,0.789903
7109.96743,0.790140
7108.03905,0.789634
7106.11066,0.787202
7104.18227,0.785683
7102.25388,0.787698
7100.32549,0.790893
7098.39710,0.792958
7096.46872,0.793761
7094.54033,0.793461
7092.61194,0.793900
7090.68355,0.796564
7088.75516,0.798690
7086.82677,0.797079
7084.89839,0.793259
7082.97000,0.791083
7081.04161,0.791063
7079.11322,0.790883
7077.18483,0.791460
7075.25645,0.793365
7073.32806,0.791331
7071.39967,0.786521
7069.47128,0.788156
7067.54289,0.794387
7065.61450,0.795656
7063.68612,0.792436
7061.75773,0.790536
7059.82934,0.791144
7057.90095,0.792186
7055.97256,0.791701
7054.04417,0.790105
7052.11579,0.788886
7050.18740,0.788605
7048.25901,0.790198
7046.33062,0.792353
7044.40223,0.791875
7042.47385,0.789265
7040.54546,0.787808
7038.61707,0.789708
7036.68868,0.792803
7034.76029,0.792287
7032.83190,0.789518
7030.90352,0.790972
7028.97513,0.794856
7027.04674,0.792867
7025.11835,0.788187
7023.18996,0.789361
7021.26157,0.792704
7019.33319,0.792204
7017.40480,0.791600
7015.47641,0.794367
7013.54802,0.795939
7011.61963,0.793697
7009.69124,0.792414
7007.76286,0.793832
7005.83447,0.794190
7003.90608,0.792231
7001.97769,0.791145
7000.04930,0.792021
6998.12092,0.791879
6996.19253,0.790830
6994.26414,0.790395
6992.33575,0.789905
6990.40736,0.791219
6988.47897,0.795082
6986.55059,0.796603
6984.62220,0.793438
6982.69381,0.790774
6980.76542,0.792050
6978.83703,0.793147
6976.90864,0.792920
6974.98026,0.794575
6973.05187,0.796733
6971.12348,0.798697
6969.19509,0.801957
6967.26670,0.802030
6965.33832,0.794868
6963.40993,0.786360
6961.48154,0.784105
6959.55315,0.787589
6957.62476,0.792117
6955.69637,0.791952
6953.76799,0.785776
6951.83960,0.781666
6949.91121,0.784040
6947.98282,0.789343
6946.05443,0.792622
6944.12604,0.791166
6942.19766,0.789442
6940.26927,0.790226
6938.34088,0.791437
6936.41249,0.793659
6934.48410,0.794609
6932.55572,0.792785
6930.62733,0.792386
6928.69894,0.792475
6926.77055,0.790991
6924.84216,0.790530
6922.91377,0.790401
6920.98539,0.790860
6919.05700,0.793703
6917.12861,0.794980
6915.20022,0.792886
6913.27183,0.790020
6911.34344,0.786810
6909.41506,0.784633
6907.48667,0.785424
6905.55828,0.787828
6903.62989,0.790822
6901.70150,0.795436
6899.77312,0.800222
6897.84473,0.801893
6895.91634,0.801314
6893.98795,0.800048
6892.05956,0.795541
6890.13117,0.789535
6888.20279,0.789240
6886.27440,0.795288
6884.34601,0.798605
6882.41762,0.793509
6880.48923,0.788492
6878.56084,0.790712
6876.63246,0.794490
6874.70407,0.795677
6872.77568,0.796232
6870.84729,0.796244
6868.91890,0.794087
6866.99052,0.791360
6865.06213,0.790818
6863.13374,0.790969
6861.20535,0.790532
6859.27696,0.790758
6857.34857,0.789978
6855.42019,0.785455
6853.49180,0.780268
6851.56341,0.779731
6849.63502,0.783002
6847.70663,0.786480
6845.77824,0.788679
6843.84986,0.789023
6841.92147,0.788379
6839.99308,0.788558
6838.06469,0.789192
6836.13630,0.788460
6834.20792,0.787014
6832.27953,0.787017
6830.35114,0.789001
6828.42275,0.790972
6826.49436,0.790938
6824.56597,0.790121
6822.63759,0.788997
6820.70920,0.786939
6818.78081,0.787588
6816.85242,0.794107
6814.92403,0.800948
6812.99564,0.800598
6811.06726,0.795002
6809.13887,0.790223
6807.21048,0.788306
6805.28209,0.789680
6803.35370,0.792532
6801.42532,0.792968
6799.49693,0.791612
6797.56854,0.791400
6795.64015,0.791088
6793.71176,0.789372
6791.78337,0.787559
6789.85499,0.786152
6787.92660,0.788261
6785.99821,0.796074
6784.06982,0.801063
6782.14143,0.797112
6780.21304,0.792891
6778.28466,0.794951
6776.35627,0.797324
6774.42788,0.794195
6772.49949,0.788406
6770.57110,0.784952
6768.64272,0.784664
6766.71433,0.784925
6764.78594,0.785140
6762.85755,0.787540
6760.92916,0.790233
6759.00077,0.790723
6757.07239,0.790320
6755.14400,0.789083
6753.21561,0.788860
6751.28722,0.792186
6749.35883,0.795973
6747.43044,0.796835
6745.50206,0.794555
6743.57367,0.790704
6741.64528,0.789595
6739.71689,0.792936
6737.78850,0.796016
6735.86012,0.796456
6733.93173,0.797187
6732.00334,0.799140
6730.07495,0.800065
6728.14656,0.798362
6726.21817,0.795465
6724.28979,0.793579
6722.36140,0.791978
6720.43301,0.789518
6718.50462,0.787442
6716.57623,0.786771
6714.64784,0.786812
6712.71946,0.786954
6710.79107,0.786968
6708.86268,0.786852
6706.93429,0.787754
6705.00590,0.790656
6703.07752,0.794710
6701.14913,0.798492
6699.22074,0.799573
6697.29235,0.796514
6695.36396,0.793064
6693.43557,0.793275
6691.50719,0.795806
6689.57880,0.795453
6687.65041,0.790441
6685.72202,0.786838
6683.79363,0.788078
6681.86524,0.790337
6679.93686,0.790810
6678.00847,0.789638
6676.08008,0.788737
6674.15169,0.789230
6672.22330,0.789635
6670.29492,0.789918
6668.36653,0.790162
6666.43814,0.788669
6664.50975,0.787425
6662.58136,0.789006
6660.65297,0.791229
6658.72459,0.793355
6656.79620,0.795992
6654.86781,0.797222
6652.93942,0.796985
6651.01103,0.796222
6649.08264,0.795285
6647.15426,0.795632
6645.22587,0.796135
6643.29748,0.794140
6641.36909,0.791368
6639.44070,0.789947
6637.51232,0.787696
6635.58393,0.784893
6633.65554,0.784937
6631.72715,0.786675
6629.79876,0.787876
6627.87037,0.789637
6625.94199,0.791493
6624.01360,0.791007
6622.08521,0.788735
6620.15682,0.788181
6618.22843,0.790352
6616.30004,0.792555
6614.37166,0.793518
6612.44327,0.794790
6610.51488,0.796768
6608.58649,0.796788
6606.65810,0.794399
6604.72971,0.793970
6602.80133,0.795676
6600.87294,0.795419
6598.94455,0.793460
6597.01616,0.791248
6595.08777,0.790389
6593.15939,0.792996
6591.23100,0.795089
6589.30261,0.793157
6587.37422,0.790781
6585.44583,0.789922
6583.51744,0.789431
6581.58906,0.789668
6579.66067,0.791452
6577.73228,0.793741
6575.80389,0.793254
6573.87550,0.790537
6571.94711,0.790669
6570.01873,0.793320
6568.09034,0.794613
6566.16195,0.794785
6564.23356,0.794685
6562.30517,0.793585
6560.37679,0.792449
6558.44840,0.793488
6556.52001,0.796264
6554.59162,0.796877
6552.66323,0.792966
6550.73484,0.788423
6548.80646,0.787931
6546.87807,0.789913
6544.94968,0.791085
6543.02129,0.791614
6541.09290,0.792866
6539.16451,0.794123
6537.23613,0.794085
6535.30774,0.794112
6533.37935,0.794492
6531.45096,0.794001
6529.52257,0.792700
6527.59419,0.790461
6525.66580,0.788821
6523.73741,0.789452
6521.80902,0.791393
6519.88063,0.793413
6517.95224,0.794768
6516.02386,0.795743
6514.09547,0.797014
6512.16708,0.797048
6510.23869,0.793735
6508.31030,0.789221
6506.38191,0.787575
6504.45353,0.788195
6502.52514,0.788506
6500.59675,0.788400
6498.66836,0.787983
6496.73997,0.786955
6494.81159,0.786562
6492.88320,0.787932
6490.95481,0.789903
6489.02642,0.791054
6487.09803,0.792051
6485.16964,0.794001
6483.24126,0.795051
6481.31287,0.793072
6479.38448,0.790630
6477.45609,0.790252
6475.52770,0.789945
6473.59931,0.789388
6471.67093,0.791738
6469.74254,0.795656
6467.81415,0.796176
6465.88576,0.793533
6463.95737,0.791258
6462.02899,0.790543
6460.10060,0.791318
6458.17221,0.793771
6456.24382,0.796510
6454.31543,0.796504
6452.38704,0.793790
6450.45866,0.791394
6448.53027,0.790676
6446.60188,0.791354
6444.67349,0.792350
6442.74510,0.792258
6440.81671,0.792192
6438.88833,0.795080
6436.95994,0.799364
6435.03155,0.800221
6433.10316,0.797276
6431.17477,0.793764
6429.24639,0.792777
6427.31800,0.794342
6425.38961,0.795004
6423.46122,0.793475
6421.53283,0.791525
6419.60444,0.790767
6417.67606,0.791309
6415.74767,0.792052
6413.81928,0.792585
6411.89089,0.792606
6409.96250,0.791766
6408.03411,0.791513
6406.10573,0.793423
6404.17734,0.796258
6402.24895,0.797800
6400.32056,0.797215
6398.39217,0.794907
6396.46379,0.793179
6394.53540,0.793864
6392.60701,0.795769
6390.67862,0.796540
6388.75023,0.795704
6386.82184,0.795235
6384.89346,0.795686
6382.96507,0.795801
6381.03668,0.794632
6379.10829,0.791152
6377.17990,0.787551
6375.25151,0.787931
6373.32313,0.791173
6371.39474,0.794156
6369.46635,0.796772
6367.53796,0.798542
6365.60957,0.798941
6363.68119,0.798410
6361.75280,0.796412
6359.82441,0.793872
6357.89602,0.793211
6355.96763,0.794644
6354.03924,0.796066
6352.11086,0.795707
6350.18247,0.793400
6348.25408,0.790728
6346.32569,0.789903
6344.39730,0.790188
6342.46891,0.789696
6340.54053,0.789181
6338.61214,0.790421
6336.68375,0.793824
6334.75536,0.796343
6332.82697,0.795856
6330.89859,0.794941
6328.97020,0.794671
6327.04181,0.794374
6325.11342,0.795285
6323.18503,0.797035
6321.25664,0.797582
6319.32826,0.796731
6317.39987,0.795468
6315.47148,0.794913
6313.54309,0.794737
6311.61470,0.794070
6309.68631,0.794952
6307.75793,0.797957
6305.82954,0.799791
6303.90115,0.799248
6301.97276,0.797748
6300.04437,0.796692
6298.11599,0.797588
6296.18760,0.799404
6294.25921,0.797992
6292.33082,0.793319
6290.40243,0.791288
6288.47404,0.794112
6286.54566,0.796576
6284.61727,0.795388
6282.68888,0.793657
6280.76049,0.793985
6278.83210,0.795790
6276.90371,0.797449
6274.97533,0.797076
6273.04694,0.794736
6271.11855,0.792854
6269.19016,0.793335
6267.26177,0.795369
6265.33339,0.795811
6263.40500,0.794328
6261.47661,0.794306
6259.54822,0.795362
6257.61983,0.794457
6255.69144,0.792379
6253.76306,0.791900
6251.83467,0.793892
6249.90628,0.796212
6247.97789,0.796766
6246.04950,0.795979
6244.12111,0.795935
6242.19273,0.797362
6240.26434,0.797384
6238.33595,0.795823
6236.40756,0.795680
6234.47917,0.796778
6232.55079,0.797417
6230.62240,0.796744
6228.69401,0.795172
6226.76562,0.793851
6224.83723,0.793721
6222.90884,0.794358
6220.98046,0.794869
6219.05207,0.796445
6217.12368,0.798416
6215.19529,0.797932
6213.26690,0.795054
6211.33851,0.792710
6209.41013,0.792962
6207.48174,0.794364
6205.55335,0.794542
6203.62496,0.793482
6201.69657,0.792919
6199.76819,0.794105
6197.83980,0.796514
6195.91141,0.797810
6193.98302,0.796542
6192.05463,0.795628
6190.12624,0.797357
6188.19786,0.798729
6186.26947,0.797036
6184.34108,0.794576
6182.41269,0.794546
6180.48430,0.795044
6178.55591,0.793110
6176.62753,0.790761
6174.69914,0.791128
6172.77075,0.794216
6170.84236,0.796850
6168.91397,0.797208
6166.98558,0.797946
6165.05720,0.799234
6163.12881,0.798490
6161.20042,0.797480
6159.27203,0.798508
6157.34364,0.800188
6155.41526,0.800319
6153.48687,0.799107
6151.55848,0.799149
6149.63009,0.800317
6147.70170,0.800126
6145.77331,0.798647
6143.84493,0.796800
6141.91654,0.796502
6139.98815,0.799136
6138.05976,0.800268
6136.13137,0.798407
6134.20298,0.798539
6132.27460,0.799641
6130.34621,0.797874
6128.41782,0.795539
6126.48943,0.794989
6124.56104,0.794810
6122.63266,0.794178
6120.70427,0.794611
6118.77588,0.796794
6116.84749,0.798721
6114.91910,0.798879
6112.99071,0.798591
6111.06233,0.798860
6109.13394,0.798985
6107.20555,0.798698
6105.27716,0.797829
6103.34877,0.796555
6101.42038,0.796022
6099.49200,0.796963
6097.56361,0.798668
6095.63522,0.799107
6093.70683,0.797426
6091.77844,0.795064
6089.85006,0.794094
6087.92167,0.795839
6085.99328,0.799230
6084.06489,0.801281
6082.13650,0.800184
6080.20811,0.796955
6078.27973,0.794783
6076.35134,0.795444
6074.42295,0.797103
6072.49456,0.798131
6070.56617,0.798972
6068.63778,0.799526
6066.70940,0.798953
6064.78101,0.798118
6062.85262,0.798046
6060.92423,0.797406
6058.99584,0.796826
6057.06746,0.798148
6055.13907,0.799481
6053.21068,0.799217
6051.28229,0.798604
6049.35390,0.799064
6047.42551,0.800463
6045.49713,0.801015
6043.56874,0.800068
6041.64035,0.799698
6039.71196,0.800773
6037.78357,0.800845
6035.85518,0.799080
6033.92680,0.797090
6031.99841,0.795776
6030.07002,0.795499
6028.14163,0.795906
6026.21324,0.797146
6024.28486,0.799142
6022.35647,0.799689
6020.42808,0.798339
6018.49969,0.797448
6016.57130,0.797631
6014.64291,0.797365
6012.71453,0.796852
6010.78614,0.797019
6008.85775,0.796715
6006.92936,0.795652
6005.00097,0.795329
6003.07258,0.796287
6001.14420,0.798217
5999.21581,0.799519
5997.28742,0.798752
5995.35903,0.797601
5993.43064,0.797541
5991.50226,0.797840
5989.57387,0.798341
5987.64548,0.799201
5985.71709,0.799627
5983.78870,0.799218
5981.86031,0.798963
5979.93193,0.799292
5978.00354,0.799726
5976.07515,0.799968
5974.14676,0.799024
5972.21837,0.797315
5970.28998,0.796795
5968.36160,0.796904
5966.43321,0.796827
5964.50482,0.798115
5962.57643,0.800513
5960.64804,0.800922
5958.71966,0.798330
5956.79127,0.795500
5954.86288,0.794678
5952.93449,0.795237
5951.00610,0.796614
5949.07771,0.798769
5947.14933,0.800142
5945.22094,0.799683
5943.29255,0.798763
5941.36416,0.799149
5939.43577,0.800299
5937.50738,0.800045
5935.57900,0.798340
5933.65061,0.797217
5931.72222,0.797656
5929.79383,0.798750
5927.86544,0.799280
5925.93706,0.799469
5924.00867,0.799579
5922.08028,0.799104
5920.15189,0.798849
5918.22350,0.799238
5916.29511,0.799617
5914.36673,0.800872
5912.43834,0.802724
5910.50995,0.802911
5908.58156,0.801995
5906.65317,0.801821
5904.72478,0.801710
5902.79640,0.800781
5900.86801,0.799685
5898.93962,0.798724
5897.01123,0.798188
5895.08284,0.799154
5893.15446,0.801112
5891.22607,0.802230
5889.29768,0.802544
5887.36929,0.803523
5885.44090,0.804987
5883.51251,0.805184
5881.58413,0.803841
5879.65574,0.801477
5877.72735,0.798626
5875.79896,0.797453
5873.87057,0.798518
5871.94218,0.799358
5870.01380,0.798877
5868.08541,0.798425
5866.15702,0.798788
5864.22863,0.799191
5862.30024,0.799633
5860.37186,0.800866
5858.44347,0.802480
5856.51508,0.803497
5854.58669,0.803472
5852.65830,0.802785
5850.72991,0.801956
5848.80153,0.801628
5846.87314,0.802734
5844.94475,0.804179
5843.01636,0.804002
5841.08797,0.802639
5839.15958,0.800877
5837.23120,0.799647
5835.30281,0.800616
5833.37442,0.802234
5831.44603,0.802362
5829.51764,0.802351
5827.58926,0.802568
5825.66087,0.802194
5823.73248,0.802413
5821.80409,0.803091
5819.87570,0.802794
5817.94731,0.802460
5816.01893,0.802617
5814.09054,0.802639
5812.16215,0.802995
5810.23376,0.803687
5808.30537,0.804363
5806.37698,0.803977
5804.44860,0.802141
5802.52021,0.800919
5800.59182,0.800385
5798.66343,0.799976
5796.73504,0.800789
5794.80666,0.801989
5792.87827,0.803204
5790.94988,0.804879
5789.02149,0.804882
5787.09310,0.802860
5785.16471,0.801955
5783.23633,0.802620
5781.30794,0.801805
5779.37955,0.799176
5777.45116,0.798747
5775.52277,0.801354
5773.59438,0.802644
5771.66600,0.802048
5769.73761,0.802506
5767.80922,0.803633
5765.88083,0.803993
5763.95244,0.803486
5762.02406,0.802863
5760.09567,0.802732
5758.16728,0.802318
5756.23889,0.801866
5754.31050,0.802204
5752.38211,0.802398
5750.45373,0.802084
5748.52534,0.802247
5746.59695,0.802650
5744.66856,0.802073
5742.74017,0.800750
5740.81178,0.800274
5738.88340,0.801232
5736.95501,0.802465
5735.02662,0.803227
5733.09823,0.804263
5731.16984,0.805427
5729.24145,0.805309
5727.31307,0.804333
5725.38468,0.804162
5723.45629,0.804781
5721.52790,0.805183
5719.59951,0.805067
5717.67113,0.804609
5715.74274,0.803674
5713.81435,0.802787
5711.88596,0.802893
5709.95757,0.802892
5708.02918,0.801944
5706.10080,0.802007
5704.17241,0.803684
5702.24402,0.804646
5700.31563,0.804244
5698.38724,0.803876
5696.45885,0.803637
5694.53047,0.803134
5692.60208,0.802670
5690.67369,0.802823
5688.74530,0.803252
5686.81691,0.802218
5684.88853,0.800110
5682.96014,0.799639
5681.03175,0.801632
5679.10336,0.804483
5677.17497,0.806086
5675.24658,0.805420
5673.31820,0.803816
5671.38981,0.802932
5669.46142,0.802927
5667.53303,0.803970
5665.60464,0.804733
5663.67625,0.803938
5661.74787,0.803319
5659.81948,0.803295
5657.89109,0.803254
5655.96270,0.803591
5654.03431,0.804056
5652.10593,0.804472
5650.17754,0.804485
5648.24915,0.803946
5646.32076,0.803817
5644.39237,0.804210
5642.46398,0.803431
5640.53560,0.801315
5638.60721,0.800403
5636.67882,0.801414
5634.75043,0.802891
5632.82204,0.804241
5630.89365,0.805300
5628.96527,0.805355
5627.03688,0.804468
5625.10849,0.803942
5623.18010,0.804128
5621.25171,0.803624
5619.32333,0.801768
5617.39494,0.801296
5615.46655,0.803849
5613.53816,0.806011
5611.60977,0.805811
5609.68138,0.804843
5607.75300,0.804096
5605.82461,0.803152
5603.89622,0.801646
5601.96783,0.801088
5600.03944,0.802627
5598.11105,0.804757
5596.18267,0.805786
5594.25428,0.805785
5592.32589,0.805472
5590.39750,0.804950
5588.46911,0.804383
5586.54073,0.804205
5584.61234,0.804572
5582.68395,0.804723
5580.75556,0.803888
5578.82717,0.803405
5576.89878,0.804575
5574.97040,0.806473
5573.04201,0.807765
5571.11362,0.807194
5569.18523,0.804424
5567.25684,0.801941
5565.32845,0.801602
5563.40007,0.802218
5561.47168,0.803343
5559.54329,0.804949
5557.61490,0.805679
5555.68651,0.805411
5553.75813,0.805109
5551.82974,0.805074
5549.90135,0.804991
5547.97296,0.804779
5546.04457,0.804675
5544.11618,0.804682
5542.18780,0.805254
5540.25941,0.805947
5538.33102,0.805126
5536.40263,0.803312
5534.47424,0.802466
5532.54585,0.803186
5530.61747,0.804640
5528.68908,0.805274
5526.76069,0.804848
5524.83230,0.804295
5522.90391,0.803797
5520.97553,0.804142
5519.04714,0.805153
5517.11875,0.804574
5515.19036,0.803167
5513.26197,0.803636
5511.33358,0.805103
5509.40520,0.805226
5507.47681,0.805000
5505.54842,0.806160
5503.62003,0.807150
5501.69164,0.806322
5499.76325,0.804232
5497.83487,0.802458
5495.90648,0.800911
5493.97809,0.798417
5492.04970,0.797651
5490.12131,0.799620
5488.19293,0.800194
5486.26454,0.800010
5484.33615,0.802280
5482.40776,0.805014
5480.47937,0.805481
5478.55098,0.802980
5476.62260,0.798231
5474.69421,0.796385
5472.76582,0.799696
5470.83743,0.802200
5468.90904,0.802150
5466.98065,0.802641
5465.05227,0.802613
5463.12388,0.800141
5461.19549,0.798313
5459.26710,0.799588
5457.33871,0.801287
5455.41033,0.802367
5453.48194,0.803370
5451.55355,0.802660
5449.62516,0.800526
5447.69677,0.798434
5445.76838,0.797360
5443.84000,0.797992
5441.91161,0.798588
5439.98322,0.799684
5438.05483,0.801402
5436.12644,0.799792
5434.19805,0.797363
5432.26967,0.797693
5430.34128,0.796425
5428.41289,0.795223
5426.48450,0.799770
5424.55611,0.806312
5422.62773,0.809450
5420.69934,0.808940
5418.77095,0.807471
5416.84256,0.805096
5414.91417,0.799534
5412.98578,0.793570
5411.05740,0.792179
5409.12901,0.795894
5407.20062,0.801608
5405.27223,0.804953
5403.34384,0.805735
5401.41545,0.806120
5399.48707,0.804769
5397.55868,0.800218
5395.63029,0.795049
5393.70190,0.794179
5391.77351,0.798944
5389.84513,0.803988
5387.91674,0.804042
5385.98835,0.800627
5384.05996,0.800213
5382.13157,0.803592
5380.20318,0.804029
5378.27480,0.798395
5376.34641,0.792887
5374.41802,0.794314
5372.48963,0.800028
5370.56124,0.804256
5368.63285,0.805716
5366.70447,0.805784
5364.77608,0.805068
5362.84769,0.804730
5360.91930,0.805714
5358.99091,0.806833
5357.06253,0.805304
5355.13414,0.799252
5353.20575,0.794476
5351.27736,0.796381
5349.34897,0.798759
5347.42058,0.796811
5345.49220,0.793076
5343.56381,0.792648
5341.63542,0.794370
5339.70703,0.792092
5337.77864,0.790019
5335.85025,0.794396
5333.92187,0.798794
5331.99348,0.799301
5330.06509,0.798745
5328.13670,0.798138
5326.20831,0.799180
5324.27992,0.802962
5322.35154,0.806445
5320.42315,0.808150
5318.49476,0.808796
5316.56637,0.808957
5314.63798,0.809264
5312.70960,0.809249
5310.78121,0.807343
5308.85282,0.803730
5306.92443,0.801629
5304.99604,0.802715
5303.06765,0.804887
5301.13927,0.806701
5299.21088,0.808236
5297.28249,0.809393
5295.35410,0.809742
5293.42571,0.808186
5291.49732,0.804414
5289.56894,0.802150
5287.64055,0.803474
5285.71216,0.804952
5283.78377,0.805976
5281.85538,0.807453
5279.92700,0.807921
5277.99861,0.807579
5276.07022,0.807815
5274.14183,0.808556
5272.21344,0.808097
5270.28505,0.805851
5268.35667,0.803848
5266.42828,0.802237
5264.49989,0.799824
5262.57150,0.798959
5260.64311,0.801298
5258.71472,0.803068
5256.78634,0.801046
5254.85795,0.798888
5252.92956,0.801675
5251.00117,0.804785
5249.07278,0.802331
5247.14440,0.797759
5245.21601,0.796778
5243.28762,0.800589
5241.35923,0.806611
5239.43084,0.810425
5237.50245,0.810863
5235.57407,0.809934
5233.64568,0.808550
5231.71729,0.807259
5229.78890,0.807030
5227.86051,0.805676
5225.93212,0.802422
5224.00374,0.802368
5222.07535,0.806095
5220.14696,0.807984
5218.21857,0.807114
5216.29018,0.806811
5214.36180,0.807821
5212.43341,0.808468
5210.50502,0.807014
5208.57663,0.802657
5206.64824,0.799198
5204.71985,0.801683
5202.79147,0.807163
5200.86308,0.809857
5198.93469,0.809188
5197.00630,0.808213
5195.07791,0.808637
5193.14952,0.808866
5191.22114,0.807743
5189.29275,0.806752
5187.36436,0.806513
5185.43597,0.806258
5183.50758,0.806735
5181.57920,0.808118
5179.65081,0.808861
5177.72242,0.808883
5175.79403,0.809318
5173.86564,0.810067
5171.93725,0.810490
5170.00887,0.810814
5168.08048,0.811045
5166.15209,0.810702
5164.22370,0.810177
5162.29531,0.809785
5160.36692,0.808914
5158.43854,0.807877
5156.51015,0.808205
5154.58176,0.810322
5152.65337,0.812727
5150.72498,0.813619
5148.79660,0.812566
5146.86821,0.811040
5144.93982,0.810522
5143.01143,0.810871
5141.08304,0.811695
5139.15465,0.812666
5137.22627,0.812743
5135.29788,0.811467
5133.36949,0.809842
5131.44110,0.809060
5129.51271,0.809352
5127.58432,0.810200
5125.65594,0.810958
5123.72755,0.811509
5121.79916,0.811968
5119.87077,0.811970
5117.94238,0.811766
5116.01400,0.812414
5114.08561,0.813471
5112.15722,0.813391
5110.22883,0.812111
5108.30044,0.810627
5106.37205,0.810065
5104.44367,0.811005
5102.51528,0.812281
5100.58689,0.812647
5098.65850,0.812125
5096.73011,0.811388
5094.80172,0.811634
5092.87334,0.813305
5090.94495,0.814973
5089.01656,0.815039
5087.08817,0.814265
5085.15978,0.814316
5083.23140,0.814746
5081.30301,0.814431
5079.37462,0.813352
5077.44623,0.811899
5075.51784,0.810543
5073.58945,0.809626
5071.66107,0.809733
5069.73268,0.811419
5067.80429,0.813031
5065.87590,0.812431
5063.94751,0.810599
5062.01912,0.809665
5060.09074,0.810285
5058.16235,0.811770
5056.23396,0.812971
5054.30557,0.813759
5052.37718,0.814534
5050.44880,0.814917
5048.52041,0.814668
5046.59202,0.814122
5044.66363,0.813292
5042.73524,0.812262
5040.80685,0.811683
5038.87847,0.811905
5036.95008,0.812569
5035.02169,0.813107
5033.09330,0.813329
5031.16491,0.813449
5029.23652,0.813508
5027.30814,0.813205
5025.37975,0.812316
5023.45136,0.811367
5021.52297,0.811446
5019.59458,0.812518
5017.66620,0.813489
5015.73781,0.814205
5013.80942,0.814828
5011.88103,0.814840
5009.95264,0.814623
5008.02425,0.814725
5006.09587,0.814236
5004.16748,0.813066
5002.23909,0.812595
5000.31070,0.812931
4998.38231,0.813302
4996.45392,0.813603
4994.52554,0.813974
4992.59715,0.814492
4990.66876,0.814657
4988.74037,0.814003
4986.81198,0.813462
4984.88360,0.814209
4982.95521,0.815396
4981.02682,0.815369
4979.09843,0.814624
4977.17004,0.814091
4975.24165,0.813538
4973.31327,0.813299
4971.38488,0.813685
4969.45649,0.814204
4967.52810,0.814238
4965.59971,0.813648
4963.67132,0.813503
4961.74294,0.814775
4959.81455,0.816377
4957.88616,0.816633
4955.95777,0.815892
4954.02938,0.815426
4952.10100,0.815427
4950.17261,0.815311
4948.24422,0.814764
4946.31583,0.814279
4944.38744,0.814098
4942.45905,0.813780
4940.53067,0.813533
4938.60228,0.813950
4936.67389,0.814711
4934.74550,0.815092
4932.81711,0.815136
4930.88872,0.815288
4928.96034,0.815442
4927.03195,0.815373
4925.10356,0.815411
4923.17517,0.815347
4921.24678,0.814741
4919.31840,0.814692
4917.39001,0.815697
4915.46162,0.816229
4913.53323,0.816122
4911.60484,0.816598
4909.67645,0.816922
4907.74807,0.815532
4905.81968,0.813304
4903.89129,0.812550
4901.96290,0.813779
4900.03451,0.815319
4898.10612,0.815507
4896.17774,0.814482
4894.24935,0.813958
4892.32096,0.814757
4890.39257,0.815586
4888.46418,0.815579
4886.53579,0.815656
4884.60741,0.815977
4882.67902,0.815420
4880.75063,0.814396
4878.82224,0.814425
4876.89385,0.815047
4874.96547,0.814819
4873.03708,0.814183
4871.10869,0.814351
4869.18030,0.814952
4867.25191,0.815152
4865.32352,0.815439
4863.39514,0.816083
4861.46675,0.816509
4859.53836,0.816956
4857.60997,0.817539
4855.68158,0.817393
4853.75319,0.816512
4851.82481,0.815923
4849.89642,0.816133
4847.96803,0.816702
4846.03964,0.816608
4844.11125,0.815664
4842.18287,0.815176
4840.25448,0.815455
4838.32609,0.815245
4836.39770,0.814391
4834.46931,0.814121
4832.54092,0.814912
4830.61254,0.815549
4828.68415,0.815646
4826.75576,0.816591
4824.82737,0.818129
4822.89898,0.818872
4820.97059,0.818758
4819.04221,0.817986
4817.11382,0.816884
4815.18543,0.816519
4813.25704,0.817011
4811.32865,0.816769
4809.40027,0.815609
4807.47188,0.815374
4805.54349,0.816229
4803.61510,0.816585
4801.68671,0.816011
4799.75832,0.815665
4797.82994,0.816194
4795.90155,0.816894
4793.97316,0.817250
4792.04477,0.817254
4790.11638,0.816916
4788.18799,0.816695
4786.25961,0.817329
4784.33122,0.818566
4782.40283,0.818859
4780.47444,0.817458
4778.54605,0.815793
4776.61767,0.815392
4774.68928,0.815960
4772.76089,0.816639
4770.83250,0.817163
4768.90411,0.817463
4766.97572,0.817541
4765.04734,0.817100
4763.11895,0.816006
4761.19056,0.815368
4759.26217,0.816001
4757.33378,0.817018
4755.40539,0.817742
4753.47701,0.818405
4751.54862,0.818532
4749.62023,0.817450
4747.69184,0.815855
4745.76345,0.815091
4743.83507,0.815600
4741.90668,0.816697
4739.97829,0.817519
4738.04990,0.817933
4736.12151,0.817984
4734.19312,0.817446
4732.26474,0.816779
4730.33635,0.816633
4728.40796,0.816710
4726.47957,0.816600
4724.55118,0.816549
4722.62279,0.816916
4720.69441,0.817641
4718.76602,0.818270
4716.83763,0.818329
4714.90924,0.817856
4712.98085,0.817524
4711.05247,0.817638
4709.12408,0.817693
4707.19569,0.817609
4705.26730,0.817579
4703.33891,0.817012
4701.41052,0.816149
4699.48214,0.816208
4697.55375,0.816959
4695.62536,0.817492
4693.69697,0.817817
4691.76858,0.817950
4689.84019,0.817852
4687.91181,0.817912
4685.98342,0.818047
4684.05503,0.817894
4682.12664,0.817919
4680.19825,0.818565
4678.26987,0.819455
4676.34148,0.819822
4674.41309,0.818851
4672.48470,0.817228
4670.55631,0.816819
4668.62792,0.817412
4666.69954,0.817528
4664.77115,0.817104
4662.84276,0.816547
4660.91437,0.816257
4658.98598,0.816834
4657.05759,0.817941
4655.12921,0.818708
4653.20082,0.818693
4651.27243,0.818021
4649.34404,0.817588
4647.41565,0.817839
4645.48727,0.818066
4643.55888,0.818145
4641.63049,0.818672
4639.70210,0.819589
4637.77371,0.820280
4635.84532,0.820223
4633.91694,0.819338
4631.98855,0.817955
4630.06016,0.816759
4628.13177,0.816396
4626.20338,0.817066
4624.27499,0.818397
4622.34661,0.819103
4620.41822,0.818736
4618.48983,0.818492
4616.56144,0.818713
4614.63305,0.818938
4612.70467,0.819039
4610.77628,0.818846
4608.84789,0.818582
4606.91950,0.818567
4604.99111,0.818742
4603.06272,0.819090
4601.13434,0.819349
4599.20595,0.819233
4597.27756,0.819080
4595.34917,0.819427
4593.42078,0.820313
4591.49239,0.821077
4589.56401,0.821090
4587.63562,0.820573
4585.70723,0.820174
4583.77884,0.820128
4581.85045,0.820179
4579.92207,0.820080
4577.99368,0.819885
4576.06529,0.819692
4574.13690,0.819491
4572.20851,0.819111
4570.28012,0.818398
4568.35174,0.817743
4566.42335,0.817743
4564.49496,0.818444
4562.56657,0.819194
4560.63818,0.819365
4558.70979,0.819296
4556.78141,0.819361
4554.85302,0.819307
4552.92463,0.819100
4550.99624,0.818654
4549.06785,0.817986
4547.13947,0.817745
4545.21108,0.818277
4543.28269,0.819121
4541.35430,0.819644
4539.42591,0.819936
4537.49752,0.820500
4535.56914,0.820979
4533.64075,0.820595
4531.71236,0.819548
4529.78397,0.818606
4527.85558,0.818082
4525.92719,0.817994
4523.99881,0.818243
4522.07042,0.818616
4520.14203,0.819113
4518.21364,0.819743
4516.28525,0.820130
4514.35687,0.819871
4512.42848,0.819306
4510.50009,0.819213
4508.57170,0.819505
4506.64331,0.819568
4504.71492,0.819456
4502.78654,0.819270
4500.85815,0.818841
4498.92976,0.818442
4497.00137,0.818544
4495.07298,0.819147
4493.14459,0.819383
4491.21621,0.818855
4489.28782,0.818667
4487.35943,0.819151
4485.43104,0.819266
4483.50265,0.818878
4481.57427,0.818905
4479.64588,0.819387
4477.71749,0.819612
4475.78910,0.819789
4473.86071,0.820163
4471.93232,0.820223
4470.00394,0.820045
4468.07555,0.819881
4466.14716,0.819517
4464.21877,0.819116
4462.29038,0.818814
4460.36199,0.818622
4458.43361,0.819033
4456.50522,0.819924
4454.57683,0.820420
4452.64844,0.820400
4450.72005,0.820191
4448.79166,0.819600
4446.86328,0.818735
4444.93489,0.818339
4443.00650,0.818524
4441.07811,0.818857
4439.14972,0.819308
4437.22134,0.819862
4435.29295,0.820065
4433.36456,0.819748
4431.43617,0.819499
4429.50778,0.819434
4427.57939,0.819107
4425.65101,0.818871
4423.72262,0.819150
4421.79423,0.819520
4419.86584,0.819646
4417.93745,0.819632
4416.00906,0.819661
4414.08068,0.820133
4412.15229,0.820733
4410.22390,0.820700
4408.29551,0.820438
4406.36712,0.820177
4404.43874,0.819689
4402.51035,0.819314
4400.58196,0.819219
4398.65357,0.819339
4396.72518,0.819354
4394.79679,0.819219
4392.86841,0.819312
4390.94002,0.819437
4389.01163,0.819568
4387.08324,0.819831
4385.15485,0.819872
4383.22646,0.819612
4381.29808,0.819267
4379.36969,0.818898
4377.44130,0.818584
4375.51291,0.818474
4373.58452,0.818244
4371.65614,0.817585
4369.72775,0.817264
4367.79936,0.818099
4365.87097,0.819625
4363.94258,0.820715
4362.01419,0.820704
4360.08581,0.819938
4358.15742,0.819394
4356.22903,0.819396
4354.30064,0.819540
4352.37225,0.819480
4350.44386,0.819215
4348.51548,0.819360
4346.58709,0.819938
4344.65870,0.819887
4342.73031,0.819167
4340.80192,0.818659
4338.87354,0.818613
4336.94515,0.818998
4335.01676,0.819571
4333.08837,0.819672
4331.15998,0.819223
4329.23159,0.818757
4327.30321,0.818443
4325.37482,0.818321
4323.44643,0.818402
4321.51804,0.818583
4319.58965,0.819065
4317.66126,0.819632
4315.73288,0.819731
4313.80449,0.819538
4311.87610,0.819213
4309.94771,0.818684
4308.01932,0.818391
4306.09094,0.818692
4304.16255,0.819275
4302.23416,0.819694
4300.30577,0.819811
4298.37738,0.819565
4296.44899,0.819303
4294.52061,0.819454
4292.59222,0.819519
4290.66383,0.819170
4288.73544,0.818713
4286.80705,0.818313
4284.87866,0.818192
4282.95028,0.818366
4281.02189,0.818614
4279.09350,0.818680
4277.16511,0.818497
4275.23672,0.818445
4273.30834,0.818689
4271.37995,0.819112
4269.45156,0.819310
4267.52317,0.819063
4265.59478,0.818859
4263.66639,0.818783
4261.73801,0.818718
4259.80962,0.818916
4257.88123,0.819193
4255.95284,0.819182
4254.02445,0.818942
4252.09606,0.818659
4250.16768,0.818363
4248.23929,0.818051
4246.31090,0.817781
4244.38251,0.817664
4242.45412,0.817890
4240.52574,0.818366
4238.59735,0.818721
4236.66896,0.818926
4234.74057,0.819014
4232.81218,0.818905
4230.88379,0.818848
4228.95541,0.818707
4227.02702,0.818102
4225.09863,0.817542
4223.17024,0.817730
4221.24185,0.818358
4219.31346,0.818395
4217.38508,0.817728
4215.45669,0.817344
4213.52830,0.817508
4211.59991,0.817920
4209.67152,0.818539
4207.74314,0.818789
4205.81475,0.818417
4203.88636,0.818349
4201.95797,0.818582
4200.02958,0.818374
4198.10119,0.818160
4196.17281,0.818235
4194.24442,0.818170
4192.31603,0.817954
4190.38764,0.817702
4188.45925,0.817430
4186.53086,0.817238
4184.60248,0.817263
4182.67409,0.817591
4180.74570,0.817936
4178.81731,0.817880
4176.88892,0.817521
4174.96054,0.817116
4173.03215,0.816820
4171.10376,0.816860
4169.17537,0.817051
4167.24698,0.817105
4165.31859,0.817114
4163.39021,0.817140
4161.46182,0.817192
4159.53343,0.817277
4157.60504,0.817396
4155.67665,0.817482
4153.74826,0.817460
4151.81988,0.817447
4149.89149,0.817295
4147.96310,0.816877
4146.03471,0.816697
4144.10632,0.817074
4142.17794,0.817675
4140.24955,0.817969
4138.32116,0.817702
4136.39277,0.817257
4134.46438,0.817207
4132.53599,0.817556
4130.60761,0.817662
4128.67922,0.817158
4126.75083,0.816752
4124.82244,0.817069
4122.89405,0.817569
4120.96566,0.817511
4119.03728,0.817030
4117.10889,0.816720
4115.18050,0.816808
4113.25211,0.817035
4111.32372,0.816992
4109.39534,0.816592
4107.46695,0.816107
4105.53856,0.815970
4103.61017,0.816351
4101.68178,0.816729
4099.75339,0.816799
4097.82501,0.816762
4095.89662,0.816707
4093.96823,0.816788
4092.03984,0.816994
4090.11145,0.817042
4088.18306,0.816816
4086.25468,0.816367
4084.32629,0.815917
4082.39790,0.815728
4080.46951,0.815771
4078.54112,0.815783
4076.61274,0.815562
4074.68435,0.815287
4072.75596,0.815363
4070.82757,0.815682
4068.89918,0.815974
4066.97079,0.816156
4065.04241,0.815897
4063.11402,0.815327
4061.18563,0.815053
4059.25724,0.815172
4057.32885,0.815451
4055.40046,0.815819
4053.47208,0.816133
4051.54369,0.816156
4049.61530,0.815984
4047.68691,0.815265
4045.75852,0.814090
4043.83013,0.814105
4041.90175,0.815196
4039.97336,0.815666
4038.04497,0.815893
4036.11658,0.816436
4034.18819,0.816266
4032.25981,0.815307
4030.33142,0.814701
4028.40303,0.814567
4026.47464,0.814311
4024.54625,0.814220
4022.61786,0.814344
4020.68948,0.813963
4018.76109,0.813488
4016.83270,0.813643
4014.90431,0.814158
4012.97592,0.814747
4011.04753,0.814661
4009.11915,0.813397
4007.19076,0.812432
4005.26237,0.812958
4003.33398,0.813960
4001.40559,0.814210
3999.47721,0.813918
3997.54882,0.813721
3995.62043,0.813386
3993.69204,0.812662
3991.76365,0.812196
3989.83526,0.812619
3987.90688,0.813397
3985.97849,0.813300
3984.05010,0.812508
3982.12171,0.812204
3980.19332,0.812583
3978.26493,0.813076
3976.33655,0.812979
3974.40816,0.812298
3972.47977,0.811774
3970.55138,0.811713
3968.62299,0.812042
3966.69461,0.812488
3964.76622,0.812298
3962.83783,0.811075
3960.90944,0.809964
3958.98105,0.809616
3957.05266,0.809333
3955.12428,0.808939
3953.19589,0.807721
3951.26750,0.804766
3949.33911,0.802062
3947.41072,0.802464
3945.48233,0.803149
3943.55395,0.801714
3941.62556,0.802989
3939.69717,0.807617
3937.76878,0.810056
3935.84039,0.807972
3933.91201,0.802250
3931.98362,0.797575
3930.05523,0.799074
3928.12684,0.802548
3926.19845,0.801474
3924.27006,0.798820
3922.34168,0.799212
3920.41329,0.799111
3918.48490,0.797141
3916.55651,0.798701
3914.62812,0.804836
3912.69973,0.809905
3910.77135,0.811145
3908.84296,0.807899
3906.91457,0.797761
3904.98618,0.783169
3903.05779,0.773993
3901.12941,0.774430
3899.20102,0.781889
3897.27263,0.793109
3895.34424,0.799167
3893.41585,0.795132
3891.48746,0.790196
3889.55908,0.792780
3887.63069,0.792678
3885.70230,0.786936
3883.77391,0.784426
3881.84552,0.783407
3879.91713,0.785737
3877.98875,0.793750
3876.06036,0.794461
3874.13197,0.786223
3872.20358,0.778071
3870.27519,0.774585
3868.34681,0.778543
3866.41842,0.781389
3864.49003,0.778546
3862.56164,0.780847
3860.63325,0.788755
3858.70486,0.790758
3856.77648,0.781975
3854.84809,0.763499
3852.91970,0.753956
3850.99131,0.771440
3849.06292,0.790550
3847.13453,0.797833
3845.20615,0.793835
3843.27776,0.783513
3841.34937,0.772046
3839.42098,0.763207
3837.49259,0.763418
3835.56421,0.771772
3833.63582,0.779502
3831.70743,0.785882
3829.77904,0.790813
3827.85065,0.791244
3825.92226,0.788910
3823.99388,0.782975
3822.06549,0.770222
3820.13710,0.764283
3818.20871,0.770165
3816.28032,0.776343
3814.35193,0.786809
3812.42355,0.798162
3810.49516,0.800412
3808.56677,0.792729
3806.63838,0.784010
3804.70999,0.779113
3802.78161,0.771074
3800.85322,0.767608
3798.92483,0.775378
3796.99644,0.783588
3795.06805,0.792875
3793.13966,0.802256
3791.21128,0.806184
3789.28289,0.805766
3787.35450,0.802548
3785.42611,0.798168
3783.49772,0.796380
3781.56933,0.794159
3779.64095,0.790676
3777.71256,0.793912
3775.78417,0.800799
3773.85578,0.801783
3771.92739,0.795298
3769.99901,0.787767
3768.07062,0.786208
3766.14223,0.788412
3764.21384,0.791553
3762.28545,0.791144
3760.35706,0.783702
3758.42868,0.777923
3756.50029,0.778513
3754.57190,0.774569
3752.64351,0.759663
3750.71512,0.746197
3748.78673,0.749712
3746.85835,0.754750
3744.92996,0.754765
3743.00157,0.761993
3741.07318,0.771120
3739.14479,0.769403
3737.21641,0.755338
3735.28802,0.741699
3733.35963,0.747478
3731.43124,0.766750
3729.50285,0.780129
3727.57446,0.781271
3725.64608,0.776520
3723.71769,0.774301
3721.78930,0.776491
3719.86091,0.782335
3717.93252,0.788840
3716.00413,0.789621
3714.07575,0.780048
3712.14736,0.764904
3710.21897,0.762981
3708.29058,0.777176
3706.36219,0.789488
3704.43381,0.791095
3702.50542,0.786595
3700.57703,0.787261
3698.64864,0.792823
3696.72025,0.795340
3694.79186,0.792326
3692.86348,0.782003
3690.93509,0.766411
3689.00670,0.761053
3687.07831,0.774307
3685.14992,0.788502
3683.22153,0.793741
3681.29315,0.790493
3679.36476,0.780204
3677.43637,0.763684
3675.50798,0.751092
3673.57959,0.755960
3671.65121,0.761347
3669.72282,0.763881
3667.79443,0.777581
3665.86604,0.792686
3663.93765,0.799078
3662.00926,0.799534
3660.08088,0.796651
3658.15249,0.789567
3656.22410,0.782927
3654.29571,0.780398
3652.36732,0.770544
3650.43893,0.748532
3648.51055,0.738727
3646.58216,0.757436
3644.65377,0.779093
3642.72538,0.789547
3640.79699,0.792068
3638.86861,0.792696
3636.94022,0.792203
3635.01183,0.789187
3633.08344,0.783396
3631.15505,0.772364
3629.22666,0.759833
3627.29828,0.764849
3625.36989,0.780015
3623.44150,0.785868
3621.51311,0.779507
3619.58472,0.769108
3617.65633,0.767397
3615.72795,0.770530
3613.79956,0.771016
3611.87117,0.772236
3609.94278,0.773468
3608.01439,0.774480
3606.08600,0.780703
3604.15762,0.787066
3602.22923,0.786390
3600.30084,0.782530
3598.37245,0.781038
3596.44406,0.780381
3594.51568,0.780607
3592.58729,0.783324
3590.65890,0.782368
3588.73051,0.773762
3586.80212,0.769878
3584.87373,0.778956
3582.94535,0.788371
3581.01696,0.791642
3579.08857,0.791856
3577.16018,0.791694
3575.23179,0.792061
3573.30340,0.792945
3571.37502,0.790439
3569.44663,0.779515
3567.51824,0.766122
3565.58985,0.766666
3563.66146,0.778355
3561.73308,0.787235
3559.80469,0.791392
3557.87630,0.793540
3555.94791,0.793054
3554.01952,0.789678
3552.09113,0.787391
3550.16275,0.787830
3548.23436,0.786339
3546.30597,0.783021
3544.37758,0.784306
3542.44919,0.790276
3540.52080,0.794952
3538.59242,0.795449
3536.66403,0.794258
3534.73564,0.794511
3532.80725,0.794761
3530.87886,0.792256
3528.95048,0.788175
3527.02209,0.785661
3525.09370,0.785143
3523.16531,0.786294
3521.23692,0.789329
3519.30853,0.792420
3517.38015,0.794100
3515.45176,0.794857
3513.52337,0.794550
3511.59498,0.792605
3509.66659,0.790788
3507.73820,0.790884
3505.80982,0.790168
3503.88143,0.787362
3501.95304,0.786864
3500.02465,0.789677
3498.09626,0.791902
3496.16788,0.792679
3494.23949,0.793479
3492.31110,0.793992
3490.38271,0.793174
3488.45432,0.791998
3486.52593,0.791770
3484.59755,0.791228
3482.66916,0.789810
3480.74077,0.789822
3478.81238,0.791404
3476.88399,0.792098
3474.95560,0.791916
3473.02722,0.792371
3471.09883,0.793197
3469.17044,0.793169
3467.24205,0.792322
3465.31366,0.791599
3463.38528,0.791097
3461.45689,0.790863
3459.52850,0.791278
3457.60011,0.792019
3455.67172,0.792719
3453.74333,0.793167
3451.81495,0.792615
3449.88656,0.790181
3447.95817,0.787098
3446.02978,0.786304
3444.10139,0.787653
3442.17300,0.788936
3440.24462,0.789729
3438.31623,0.790203
3436.38784,0.790642
3434.45945,0.791229
3432.53106,0.791314
3430.60268,0.790817
3428.67429,0.790391
3426.74590,0.790154
3424.81751,0.789488
3422.88912,0.788158
3420.96073,0.787468
3419.03235,0.788457
3417.10396,0.789851
3415.17557,0.790193
3413.24718,0.789742
3411.31879,0.789367
3409.39040,0.789394
3407.46202,0.789454
3405.53363,0.789113
3403.60524,0.788783
3401.67685,0.788814
3399.74846,0.788517
3397.82008,0.787823
3395.89169,0.787562
3393.96330,0.787636
3392.03491,0.787601
3390.10652,0.787743
3388.17813,0.788059
3386.24975,0.787996
3384.32136,0.787655
3382.39297,0.787559
3380.46458,0.787547
3378.53619,0.787321
3376.60780,0.787012
3374.67942,0.786870
3372.75103,0.786839
3370.82264,0.786624
3368.89425,0.786258
3366.96586,0.785894
3365.03748,0.785645
3363.10909,0.785727
3361.18070,0.786047
3359.25231,0.786252
3357.32392,0.786126
3355.39553,0.785918
3353.46715,0.786094
3351.53876,0.786602
3349.61037,0.786986
3347.68198,0.786896
3345.75359,0.786216
3343.82520,0.785406
3341.89682,0.785125
3339.96843,0.785083
3338.04004,0.784554
3336.11165,0.783818
3334.18326,0.783665
3332.25488,0.784082
3330.32649,0.784423
3328.39810,0.784431
3326.46971,0.784350
3324.54132,0.784345
3322.61293,0.784439
3320.68455,0.784474
3318.75616,0.784249
3316.82777,0.783897
3314.89938,0.783492
3312.97099,0.782905
3311.04260,0.782231
3309.11422,0.781811
3307.18583,0.782041
3305.25744,0.782705
3303.32905,0.782964
3301.40066,0.782660
3299.47228,0.782339
3297.54389,0.782174
3295.61550,0.782066
3293.68711,0.781925
3291.75872,0.781679
3289.83033,0.781475
3287.90195,0.781376
3285.97356,0.781382
3284.04517,0.781315
3282.11678,0.780738
3280.18839,0.779970
3278.26000,0.779576
3276.33162,0.779305
3274.40323,0.778993
3272.47484,0.779047
3270.54645,0.779603
3268.61806,0.780298
3266.68968,0.780659
3264.76129,0.780502
3262.83290,0.780159
3260.90451,0.780021
3258.97612,0.780130
3257.04773,0.780136
3255.11935,0.779743
3253.19096,0.779400
3251.26257,0.779483
3249.33418,0.779467
3247.40579,0.778742
3245.47740,0.777734
3243.54902,0.777475
3241.62063,0.777938
3239.69224,0.778358
3237.76385,0.778502
3235.83546,0.778438
3233.90708,0.778190
3231.97869,0.777818
3230.05030,0.777506
3228.12191,0.777373
3226.19352,0.777205
3224.26513,0.776815
3222.33675,0.776433
3220.40836,0.776434
3218.47997,0.776782
3216.55158,0.776879
3214.62319,0.776484
3212.69480,0.776109
3210.76642,0.776006
3208.83803,0.776152
3206.90964,0.776550
3204.98125,0.776797
3203.05286,0.776611
3201.12448,0.776143
3199.19609,0.775577
3197.26770,0.775285
3195.33931,0.775504
3193.41092,0.775854
3191.48253,0.776033
3189.55415,0.776052
3187.62576,0.775889
3185.69737,0.775713
3183.76898,0.775741
3181.84059,0.775823
3179.91220,0.775661
3177.98382,0.775312
3176.05543,0.775088
3174.12704,0.775057
3172.19865,0.775140
3170.27026,0.775278
3168.34187,0.775329
3166.41349,0.775192
3164.48510,0.775001
3162.55671,0.774865
3160.62832,0.774669
3158.69993,0.774405
3156.77155,0.774166
3154.84316,0.774084
3152.91477,0.774282
3150.98638,0.774494
3149.05799,0.774399
3147.12960,0.774147
3145.20122,0.773904
3143.27283,0.773536
3141.34444,0.773124
3139.41605,0.773053
3137.48766,0.773193
3135.55927,0.772838
3133.63089,0.772196
3131.70250,0.772171
3129.77411,0.772377
3127.84572,0.772072
3125.91733,0.771588
3123.98895,0.771220
3122.06056,0.770959
3120.13217,0.770896
3118.20378,0.770960
3116.27539,0.771144
3114.34700,0.771548
3112.41862,0.771921
3110.49023,0.772022
3108.56184,0.772081
3106.63345,0.772193
3104.70506,0.771946
3102.77667,0.771211
3100.84829,0.770581
3098.91990,0.770412
3096.99151,0.770376
3095.06312,0.770333
3093.13473,0.770453
3091.20635,0.770775
3089.27796,0.771123
3087.34957,0.771250
3085.42118,0.771032
3083.49279,0.770335
3081.56440,0.769411
3079.63602,0.769007
3077.70763,0.769288
3075.77924,0.769809
3073.85085,0.770208
3071.92246,0.770253
3069.99407,0.769820
3068.06569,0.768982
3066.13730,0.768312
3064.20891,0.768413
3062.28052,0.768892
3060.35213,0.768855
3058.42375,0.768079
3056.49536,0.767434
3054.56697,0.767858
3052.63858,0.768649
3050.71019,0.768567
3048.78180,0.767988
3046.85342,0.767901
3044.92503,0.768333
3042.99664,0.768576
3041.06825,0.768138
3039.13986,0.767545
3037.21147,0.767382
3035.28309,0.767105
3033.35470,0.766344
3031.42631,0.765888
3029.49792,0.766225
3027.56953,0.766653
3025.64115,0.766702
3023.71276,0.766813
3021.78437,0.767011
3019.85598,0.766825
3017.92759,0.766318
3015.99920,0.765808
3014.07082,0.765448
3012.14243,0.765393
3010.21404,0.765634
3008.28565,0.765840
3006.35726,0.765798
3004.42887,0.765621
3002.50049,0.765383
3000.57210,0.765090
2998.64371,0.764886
2996.71532,0.764811
2994.78693,0.764704
2992.85855,0.764418
2990.93016,0.763917
2989.00177,0.763526
2987.07338,0.763674
2985.14499,0.764116
2983.21660,0.764384
2981.28822,0.764423
2979.35983,0.764154
2977.43144,0.763477
2975.50305,0.762828
2973.57466,0.762799
2971.64627,0.763254
2969.71789,0.763443
2967.78950,0.763065
2965.86111,0.762718
2963.93272,0.762643
2962.00433,0.762324
2960.07595,0.761929
2958.14756,0.761910
2956.21917,0.761936
2954.29078,0.761804
2952.36239,0.761803
2950.43400,0.761797
2948.50562,0.761575
2946.57723,0.761532
2944.64884,0.761663
2942.72045,0.761438
2940.79206,0.760879
2938.86367,0.760272
2936.93529,0.759752
2935.00690,0.759544
2933.07851,0.759798
2931.15012,0.760231
2929.22173,0.760404
2927.29335,0.760226
2925.36496,0.759873
2923.43657,0.759560
2921.50818,0.759413
2919.57979,0.759279
2917.65140,0.758991
2915.72302,0.758721
2913.79463,0.758645
2911.86624,0.758719
2909.93785,0.758725
2908.00946,0.758482
2906.08107,0.758164
2904.15269,0.757939
2902.22430,0.757717
2900.29591,0.757478
2898.36752,0.757301
2896.43913,0.757191
2894.51075,0.757082
2892.58236,0.757004
2890.65397,0.757046
2888.72558,0.757118
2886.79719,0.756954
2884.86880,0.756540
2882.94042,0.756196
2881.01203,0.755989
2879.08364,0.755758
2877.15525,0.755443
2875.22686,0.755197
2873.29847,0.755149
2871.37009,0.754986
2869.44170,0.754700
2867.51331,0.754681
2865.58492,0.754713
2863.65653,0.754489
2861.72815,0.754190
2859.79976,0.753864
2857.87137,0.753581
2855.94298,0.753611
2854.01459,0.753711
2852.08620,0.753575
2850.15782,0.753501
2848.22943,0.753524
2846.30104,0.753314
2844.37265,0.753035
2842.44426,0.752942
2840.51587,0.752816
2838.58749,0.752567
2836.65910,0.752413
2834.73071,0.752354
2832.80232,0.752161
2830.87393,0.751789
2828.94555,0.751565
2827.01716,0.751683
2825.08877,0.751644
2823.16038,0.751035
2821.23199,0.750421
2819.30360,0.750386
2817.37522,0.750731
2815.44683,0.750993
2813.51844,0.750783
2811.59005,0.750195
2809.66166,0.749704
2807.73327,0.749502
2805.80489,0.749541
2803.87650,0.749589
2801.94811,0.749440
2800.01972,0.749247
2798.09133,0.749074
2796.16295,0.748805
2794.23456,0.748530
2792.30617,0.748340
2790.37778,0.748172
2788.44939,0.748023
2786.52100,0.747841
2784.59262,0.747510
2782.66423,0.747310
2780.73584,0.747445
2778.80745,0.747476
2776.87906,0.747130
2774.95067,0.746701
2773.02229,0.746488
2771.09390,0.746502
2769.16551,0.746441
2767.23712,0.746074
2765.30873,0.745673
2763.38034,0.745680
2761.45196,0.745958
2759.52357,0.745965
2757.59518,0.745656
2755.66679,0.745231
2753.73840,0.744736
2751.81002,0.744497
2749.88163,0.744747
2747.95324,0.745038
2746.02485,0.744843
2744.09646,0.744306
2742.16807,0.743857
2740.23969,0.743528
2738.31130,0.743285
2736.38291,0.743305
2734.45452,0.743518
2732.52613,0.743537
2730.59774,0.743160
2728.66936,0.742653
2726.74097,0.742410
2724.81258,0.742464
2722.88419,0.742574
2720.95580,0.742562
2719.02742,0.742307
2717.09903,0.741810
2715.17064,0.741356
2713.24225,0.741193
2711.31386,0.741157
2709.38547,0.740920
2707.45709,0.740480
2705.52870,0.740146
2703.60031,0.740132
2701.67192,0.740205
2699.74353,0.739952
2697.81514,0.739511
2695.88676,0.739253
2693.95837,0.739203
2692.02998,0.739325
2690.10159,0.739475
2688.17320,0.739398
2686.24482,0.739023
2684.31643,0.738486
2682.38804,0.738124
2680.45965,0.738154
2678.53126,0.738386
2676.60287,0.738475
2674.67449,0.738312
2672.74610,0.738070
2670.81771,0.737844
2668.88932,0.737433
2666.96093,0.736837
2665.03254,0.736525
2663.10416,0.736486
2661.17577,0.736256
2659.24738,0.735980
2657.31899,0.735931
2655.39060,0.735871
2653.46222,0.735579
2651.53383,0.735280
2649.60544,0.735206
2647.67705,0.735082
2645.74866,0.734726
2643.82027,0.734252
2641.89189,0.733740
2639.96350,0.733465
2638.03511,0.733487
2636.10672,0.733479
2634.17833,0.733350
2632.24994,0.733118
2630.32156,0.732716
2628.39317,0.732342
2626.46478,0.732232
2624.53639,0.732147
2622.60800,0.731918
2620.67962,0.731600
2618.75123,0.730963
2616.82284,0.730271
2614.89445,0.730240
2612.96606,0.730720
2611.03767,0.731028
2609.10929,0.730873
2607.18090,0.730479
2605.25251,0.730200
2603.32412,0.729946
2601.39573,0.729592
2599.46734,0.729367
2597.53896,0.729282
2595.61057,0.729133
2593.68218,0.728844
2591.75379,0.728420
2589.82540,0.728012
2587.89702,0.727799
2585.96863,0.727739
2584.04024,0.727629
2582.11185,0.727396
2580.18346,0.727220
2578.25507,0.727108
2576.32669,0.726778
2574.39830,0.726291
2572.46991,0.725986
2570.54152,0.725798
2568.61313,0.725568
2566.68474,0.725371
2564.75636,0.725087
2562.82797,0.724740
2560.89958,0.724610
2558.97119,0.724631
2557.04280,0.724653
2555.11442,0.724523
2553.18603,0.723981
2551.25764,0.723344
2549.32925,0.723136
2547.40086,0.723125
2545.47247,0.722898
2543.54409,0.722636
2541.61570,0.722611
2539.68731,0.722645
2537.75892,0.722469
2535.83053,0.722144
2533.90214,0.721763
2531.97376,0.721387
2530.04537,0.721202
2528.11698,0.721151
2526.18859,0.720967
2524.26020,0.720613
2522.33182,0.720273
2520.40343,0.720069
2518.47504,0.720004
2516.54665,0.720081
2514.61826,0.720253
2512.68987,0.720373
2510.76149,0.720184
2508.83310,0.719636
2506.90471,0.719124
2504.97632,0.718859
2503.04793,0.718703
2501.11954,0.718471
2499.19116,0.717968
2497.26277,0.717389
2495.33438,0.717036
2493.40599,0.716765
2491.47760,0.716480
2489.54922,0.716338
2487.62083,0.716346
2485.69244,0.716316
2483.76405,0.716205
2481.83566,0.716091
2479.90727,0.715868
2477.97889,0.715461
2476.05050,0.714937
2474.12211,0.714429
2472.19372,0.714013
2470.26533,0.713635
2468.33694,0.713562
2466.40856,0.713924
2464.48017,0.714238
2462.55178,0.714181
2460.62339,0.713738
2458.69500,0.713056
2456.76662,0.712542
2454.83823,0.712326
2452.90984,0.712076
2450.98145,0.711689
2449.05306,0.711535
2447.12467,0.711674
2445.19629,0.711578
2443.26790,0.711127
2441.33951,0.710690
2439.41112,0.710341
2437.48273,0.710106
2435.55434,0.710013
2433.62596,0.709767
2431.69757,0.709206
2429.76918,0.708562
2427.84079,0.708172
2425.91240,0.708004
2423.98402,0.707752
2422.05563,0.707457
2420.12724,0.707358
2418.19885,0.707344
2416.27046,0.707136
2414.34207,0.706735
2412.41369,0.706300
2410.48530,0.706037
2408.55691,0.705968
2406.62852,0.705670
2404.70013,0.705066
2402.77174,0.704557
2400.84336,0.704149
2398.91497,0.703696
2396.98658,0.703367
2395.05819,0.703294
2393.12980,0.703339
2391.20142,0.703332
2389.27303,0.703098
2387.34464,0.702330
2385.41625,0.700675
2383.48786,0.697698
2381.55947,0.693055
2379.63109,0.686944
2377.70270,0.680143
2375.77431,0.673383
2373.84592,0.666789
2371.91753,0.660179
2369.98914,0.653562
2368.06076,0.647341
2366.13237,0.642094
2364.20398,0.637997
2362.27559,0.634931
2360.34720,0.633392
2358.41882,0.634257
2356.49043,0.637695
2354.56204,0.643363
2352.63365,0.651105
2350.70526,0.658706
2348.77687,0.661674
2346.84849,0.658180
2344.92010,0.651865
2342.99171,0.648229
2341.06332,0.647697
2339.13493,0.648262
2337.20654,0.648943
2335.27816,0.649297
2333.34977,0.649498
2331.42138,0.650116
2329.49299,0.651510
2327.56460,0.653309
2325.63621,0.654977
2323.70783,0.656466
2321.77944,0.658235
2319.85105,0.660964
2317.92266,0.664609
2315.99427,0.667875
2314.06589,0.669854
2312.13750,0.671380
2310.20911,0.673456
2308.28072,0.675886
2306.35233,0.678219
2304.42394,0.680262
2302.49556,0.681764
2300.56717,0.682650
2298.63878,0.683292
2296.71039,0.684201
2294.78200,0.685319
2292.85361,0.686117
2290.92523,0.686469
2288.99684,0.686692
2287.06845,0.687063
2285.14006,0.687534
2283.21167,0.687796
2281.28329,0.687616
2279.35490,0.686939
2277.42651,0.686129
2275.49812,0.685663
2273.56973,0.685476
2271.64134,0.685323
2269.71296,0.685071
2267.78457,0.684696
2265.85618,0.684431
2263.92779,0.684348
2261.99940,0.684188
2260.07101,0.683887
2258.14263,0.683669
2256.21424,0.683653
2254.28585,0.683761
2252.35746,0.683895
2250.42907,0.683897
2248.50069,0.683631
2246.57230,0.683186
2244.64391,0.682797
2242.71552,0.682569
2240.78713,0.682288
2238.85874,0.681850
2236.93036,0.681504
2235.00197,0.681319
2233.07358,0.681105
2231.14519,0.680859
2229.21680,0.680614
2227.28841,0.680260
2225.36003,0.679882
2223.43164,0.679586
2221.50325,0.679237
2219.57486,0.678809
2217.64647,0.678431
2215.71809,0.678286
2213.78970,0.678367
2211.86131,0.678253
2209.93292,0.677748
2208.00453,0.677081
2206.07614,0.676435
2204.14776,0.675973
2202.21937,0.675813
2200.29098,0.675772
2198.36259,0.675675
2196.43420,0.675616
2194.50581,0.675563
2192.57743,0.675362
2190.64904,0.675106
2188.72065,0.674831
2186.79226,0.674377
2184.86387,0.673868
2182.93549,0.673508
2181.00710,0.673152
2179.07871,0.672639
2177.15032,0.672178
2175.22193,0.672059
2173.29354,0.671987
2171.36516,0.671573
2169.43677,0.671154
2167.50838,0.670983
2165.57999,0.670799
2163.65160,0.670432
2161.72321,0.669951
2159.79483,0.669563
2157.86644,0.669279
2155.93805,0.668950
2154.00966,0.668672
2152.08127,0.668526
2150.15289,0.668381
2148.22450,0.668177
2146.29611,0.667853
2144.36772,0.667277
2142.43933,0.666576
2140.51094,0.666047
2138.58256,0.665676
2136.65417,0.665258
2134.72578,0.664939
2132.79739,0.664934
2130.86900,0.664952
2128.94061,0.664649
2127.01223,0.664129
2125.08384,0.663688
2123.15545,0.663387
2121.22706,0.663073
2119.29867,0.662734
2117.37029,0.662421
2115.44190,0.662145
2113.51351,0.661924
2111.58512,0.661646
2109.65673,0.661249
2107.72834,0.660927
2105.79996,0.660812
2103.87157,0.660680
2101.94318,0.660279
2100.01479,0.659725
2098.08640,0.659238
2096.15801,0.658840
2094.22963,0.658514
2092.30124,0.658257
2090.37285,0.657993
2088.44446,0.657784
2086.51607,0.657538
2084.58769,0.656947
2082.65930,0.656296
2080.73091,0.656143
2078.80252,0.656371
2076.87413,0.656347
2074.94574,0.655818
2073.01736,0.655244
2071.08897,0.654894
2069.16058,0.654458
2067.23219,0.653785
2065.30380,0.653310
2063.37541,0.653293
2061.44703,0.653183
2059.51864,0.652885
2057.59025,0.652845
2055.66186,0.652780
2053.73347,0.652456
2051.80509,0.652161
2049.87670,0.651915
2047.94831,0.651667
2046.01992,0.651419
2044.09153,0.650924
2042.16314,0.650240
2040.23476,0.649985
2038.30637,0.650204
2036.37798,0.650217
2034.44959,0.649779
2032.52120,0.649281
2030.59281,0.648956
2028.66443,0.648569
2026.73604,0.648089
2024.80765,0.647772
2022.87926,0.647451
2020.95087,0.646635
2019.02249,0.645368
2017.09410,0.644750
2015.16571,0.645314
2013.23732,0.645904
2011.30893,0.645777
2009.38054,0.645311
2007.45216,0.644935
2005.52377,0.644824
2003.59538,0.644691
2001.66699,0.644207
1999.73860,0.643590
1997.81021,0.643187
1995.88183,0.642374
1993.95344,0.640332
1992.02505,0.638480
1990.09666,0.638584
1988.16827,0.639778
1986.23989,0.640881
1984.31150,0.641572
1982.38311,0.641608
1980.45472,0.641185
1978.52633,0.640724
1976.59794,0.640296
1974.66956,0.639759
1972.74117,0.639128
1970.81278,0.637921
1968.88439,0.635692
1966.95600,0.634311
1965.02761,0.635406
1963.09923,0.637001
1961.17084,0.637468
1959.24245,0.637458
1957.31406,0.637080
1955.38567,0.636192
1953.45729,0.635517
1951.52890,0.635314
1949.60051,0.634996
1947.67212,0.633977
1945.74373,0.631646
1943.81534,0.628419
1941.88696,0.627521
1939.95857,0.630059
1938.03018,0.632454
1936.10179,0.633045
1934.17340,0.632807
1932.24501,0.632421
1930.31663,0.632246
1928.38824,0.632184
1926.45985,0.630869
1924.53146,0.627549
1922.60307,0.624902
1920.67469,0.624146
1918.74630,0.623372
1916.81791,0.624113
1914.88952,0.626747
1912.96113,0.627465
1911.03274,0.625571
1909.10436,0.624166
1907.17597,0.624963
1905.24758,0.626381
1903.31919,0.627013
1901.39080,0.627003
1899.46241,0.626253
1897.53403,0.624356
1895.60564,0.622396
1893.67725,0.621612
1891.74886,0.620257
1889.82047,0.618392
1887.89208,0.619211
1885.96370,0.621455
1884.03531,0.622642
1882.10692,0.623164
1880.17853,0.623220
1878.25014,0.622868
1876.32176,0.622459
1874.39337,0.621630
1872.46498,0.618203
1870.53659,0.610737
1868.60820,0.605161
1866.67981,0.608528
1864.75143,0.615142
1862.82304,0.618204
1860.89465,0.618426
1858.96626,0.618323
1857.03787,0.618550
1855.10948,0.618632
1853.18110,0.618103
1851.25271,0.616499
1849.32432,0.613314
1847.39593,0.608276
1845.46754,0.602408
1843.53916,0.601715
1841.61077,0.607624
1839.68238,0.611921
1837.75399,0.612309
1835.82560,0.612103
1833.89721,0.610925
1831.96883,0.605445
1830.04044,0.599223
1828.11205,0.599027
1826.18366,0.601379
1824.25527,0.603838
1822.32688,0.607894
1820.39850,0.610585
1818.47011,0.610493
1816.54172,0.609700
1814.61333,0.608365
1812.68494,0.605239
1810.75656,0.602738
1808.82817,0.603907
1806.89978,0.606234
1804.97139,0.605692
1803.04300,0.601268
1801.11461,0.596510
1799.18623,0.596081
1797.25784,0.597722
1795.32945,0.595726
1793.40106,0.589940
1791.47267,0.589026
1789.54428,0.596115
1787.61590,0.601443
1785.68751,0.601355
1783.75912,0.599145
1781.83073,0.596788
1779.90234,0.595835
1777.97396,0.596246
1776.04557,0.593353
1774.11718,0.584962
1772.18879,0.577964
1770.26040,0.580772
1768.33201,0.588399
1766.40363,0.594270
1764.47524,0.594828
1762.54685,0.590815
1760.61846,0.588968
1758.69007,0.589780
1756.76168,0.590378
1754.83330,0.590814
1752.90491,0.586609
1750.97652,0.576850
1749.04813,0.571536
1747.11974,0.574786
1745.19136,0.579081
1743.26297,0.580224
1741.33458,0.579397
1739.40619,0.579437
1737.47780,0.578741
1735.54941,0.572096
1733.62103,0.565838
1731.69264,0.571297
1729.76425,0.580464
1727.83586,0.587534
1725.90747,0.590385
1723.97908,0.589332
1722.05070,0.585967
1720.12231,0.576813
1718.19392,0.561812
1716.26553,0.556476
1714.33714,0.566363
1712.40876,0.577136
1710.48037,0.581563
1708.55198,0.578556
1706.62359,0.571225
1704.69520,0.566224
1702.76681,0.562382
1700.83843,0.554277
1698.91004,0.548696
1696.98165,0.552089
1695.05326,0.562933
1693.12487,0.573902
1691.19648,0.576329
1689.26810,0.572253
1687.33971,0.564501
1685.41132,0.551404
1683.48293,0.546135
1681.55454,0.557776
1679.62616,0.568169
1677.69777,0.570373
1675.76938,0.566984
1673.84099,0.563940
1671.91260,0.560406
1669.98421,0.556831
1668.05583,0.562591
1666.12744,0.570922
1664.19905,0.571402
1662.27066,0.569604
1660.34227,0.572696
1658.41388,0.573891
1656.48550,0.565759
1654.55711,0.547877
1652.62872,0.539176
1650.70033,0.547611
1648.77194,0.547803
1646.84356,0.545687
1644.91517,0.556609
1642.98678,0.568361
1641.05839,0.570779
1639.13000,0.564044
1637.20161,0.551344
1635.27323,0.547849
1633.34484,0.560307
1631.41645,0.569046
1629.48806,0.568344
1627.55967,0.564548
1625.63128,0.561376
1623.70290,0.558925
1621.77451,0.560737
1619.84612,0.562070
1617.91773,0.557286
1615.98934,0.555742
1614.06096,0.562738
1612.13257,0.567325
1610.20418,0.566760
1608.27579,0.565767
1606.34740,0.566738
1604.41901,0.567551
1602.49063,0.567418
1600.56224,0.567631
1598.63385,0.567746
1596.70546,0.566774
1594.77707,0.565874
1592.84868,0.566079
1590.92030,0.566605
1588.99191,0.566984
1587.06352,0.567282
1585.13513,0.567163
1583.20674,0.566411
1581.27836,0.564432
1579.34997,0.558744
1577.42158,0.549027
1575.49319,0.545655
1573.56480,0.550837
1571.63641,0.550725
1569.70803,0.546181
1567.77964,0.547168
1565.85125,0.550068
1563.92286,0.548884
1561.99447,0.540281
1560.06608,0.519582
1558.13770,0.508270
1556.20931,0.523168
1554.28092,0.536157
1552.35253,0.541771
1550.42414,0.543370
1548.49576,0.543970
1546.56737,0.540132
1544.63898,0.528070
1542.71059,0.511872
1540.78220,0.502125
1538.85381,0.514141
1536.92543,0.529729
1534.99704,0.532515
1533.06865,0.531836
1531.14026,0.536299
1529.21187,0.537298
1527.28348,0.531608
1525.35510,0.524940
1523.42671,0.517811
1521.49832,0.512457
1519.56993,0.514304
1517.64154,0.518580
1515.71316,0.524871
1513.78477,0.531390
1511.85638,0.530339
1509.92799,0.518564
1507.99960,0.501987
1506.07121,0.505513
1504.14283,0.526869
1502.21444,0.537178
1500.28605,0.535550
1498.35766,0.529849
1496.42927,0.530100
1494.50088,0.535456
1492.57250,0.534231
1490.64411,0.525164
1488.71572,0.521841
1486.78733,0.530491
1484.85894,0.539501
1482.93055,0.542657
1481.00217,0.542134
1479.07378,0.539513
1477.14539,0.533114
1475.21700,0.523475
1473.28861,0.517199
1471.36023,0.523306
1469.43184,0.533822
1467.50345,0.536335
1465.57506,0.532787
1463.64667,0.532425
1461.71828,0.532269
1459.78990,0.523075
1457.86151,0.509341
1455.93312,0.511902
1454.00473,0.525077
1452.07634,0.532432
1450.14795,0.533012
1448.21957,0.531409
1446.29118,0.533115
1444.36279,0.536672
1442.43440,0.538021
1440.50601,0.535883
1438.57763,0.529555
1436.64924,0.523718
1434.72085,0.525814
1432.79246,0.529240
1430.86407,0.529041
1428.93568,0.529442
1427.00730,0.530580
1425.07891,0.528832
1423.15052,0.525780
1421.22213,0.521625
1419.29374,0.516411
1417.36535,0.518386
1415.43697,0.525880
1413.50858,0.530223
1411.58019,0.530782
1409.65180,0.530280
1407.72341,0.528600
1405.79503,0.525635
1403.86664,0.524704
1401.93825,0.524542
1400.00986,0.521003
1398.08147,0.516274
1396.15308,0.514266
1394.22470,0.516782
1392.29631,0.522060
1390.36792,0.523893
1388.43953,0.521344
1386.51114,0.520603
1384.58275,0.523700
1382.65437,0.525818
1380.72598,0.525278
1378.79759,0.523411
1376.86920,0.520046
1374.94081,0.516362
1373.01243,0.516631
1371.08404,0.519502
1369.15565,0.520749
1367.22726,0.520619
1365.29887,0.518297
1363.37048,0.514025
1361.44210,0.513532
1359.51371,0.517249
1357.58532,0.519779
1355.65693,0.520055
1353.72854,0.519924
1351.80015,0.519727
1349.87177,0.519282
1347.94338,0.519201
1346.01499,0.519374
1344.08660,0.518426
1342.15821,0.514818
1340.22983,0.510208
1338.30144,0.509381
1336.37305,0.512490
1334.44466,0.515370
1332.51627,0.516409
1330.58788,0.516241
1328.65950,0.515619
1326.73111,0.514961
1324.80272,0.514306
1322.87433,0.513357
1320.94594,0.511694
1319.01755,0.510167
1317.08917,0.509957
1315.16078,0.510165
1313.23239,0.510111
1311.30400,0.510373
1309.37561,0.510651
1307.44723,0.510626
1305.51884,0.510589
1303.59045,0.510497
1301.66206,0.510225
1299.73367,0.509745
1297.80528,0.509082
1295.87690,0.508400
1293.94851,0.507845
1292.02012,0.507394
1290.09173,0.506884
1288.16334,0.506544
1286.23495,0.506651
1284.30657,0.506655
1282.37818,0.506171
1280.44979,0.505601
1278.52140,0.505171
1276.59301,0.504776
1274.66463,0.504205
1272.73624,0.503311
1270.80785,0.502548
1268.87946,0.502393
1266.95107,0.502592
1265.02268,0.502672
1263.09430,0.502290
1261.16591,0.501538
1259.23752,0.501037
1257.30913,0.500937
1255.38074,0.500718
1253.45235,0.500182
1251.52397,0.499568
1249.59558,0.498990
1247.66719,0.498335
1245.73880,0.497614
1243.81041,0.497109
1241.88203,0.496917
1239.95364,0.496693
1238.02525,0.496184
1236.09686,0.495593
1234.16847,0.495094
1232.24008,0.494632
1230.31170,0.494252
1228.38331,0.493836
1226.45492,0.493310
1224.52653,0.493051
1222.59814,0.493028
1220.66975,0.492847
1218.74137,0.492633
1216.81298,0.492509
1214.88459,0.492091
1212.95620,0.491344
1211.02781,0.490808
1209.09943,0.490571
1207.17104,0.490328
1205.24265,0.489981
1203.31426,0.489534
1201.38587,0.489064
1199.45748,0.488615
1197.52910,0.488125
1195.60071,0.487576
1193.67232,0.487155
1191.74393,0.486975
1189.81554,0.486781
1187.88715,0.486475
1185.95877,0.486090
1184.03038,0.485538
1182.10199,0.484985
1180.17360,0.484577
1178.24521,0.484174
1176.31683,0.483627
1174.38844,0.482981
1172.46005,0.482500
1170.53166,0.482205
1168.60327,0.481748
1166.67488,0.481125
1164.74650,0.480710
1162.81811,0.480493
1160.88972,0.480108
1158.96133,0.479553
1157.03294,0.479035
1155.10455,0.478477
1153.17617,0.477897
1151.24778,0.477438
1149.31939,0.476933
1147.39100,0.476273
1145.46261,0.475668
1143.53423,0.475312
1141.60584,0.475234
1139.67745,0.475155
1137.74906,0.474751
1135.82067,0.474309
1133.89228,0.474038
1131.96390,0.473502
1130.03551,0.472765
1128.10712,0.472415
1126.17873,0.472328
1124.25034,0.471893
1122.32195,0.471077
1120.39357,0.470430
1118.46518,0.470201
1116.53679,0.470162
1114.60840,0.470142
1112.68001,0.469958
1110.75163,0.469431
1108.82324,0.468795
1106.89485,0.468423
1104.96646,0.468279
1103.03807,0.468121
1101.10968,0.467822
1099.18130,0.467347
1097.25291,0.466944
1095.32452,0.466714
1093.39613,0.466229
1091.46774,0.465573
1089.53935,0.465196
1087.61097,0.464745
1085.68258,0.463929
1083.75419,0.463285
1081.82580,0.462921
1079.89741,0.462459
1077.96903,0.462135
1076.04064,0.462031
1074.11225,0.461648
1072.18386,0.461052
1070.25547,0.460637
1068.32708,0.460329
1066.39870,0.459914
1064.47031,0.459455
1062.54192,0.459162
1060.61353,0.458963
1058.68514,0.458515
1056.75675,0.457741
1054.82837,0.457013
1052.89998,0.456543
1050.97159,0.456194
1049.04320,0.455880
1047.11481,0.455574
1045.18642,0.455313
1043.25804,0.454989
1041.32965,0.454520
1039.40126,0.454303
1037.47287,0.454295
1035.54448,0.453861
1033.61610,0.453011
1031.68771,0.452284
1029.75932,0.451827
1027.83093,0.451390
1025.90254,0.450796
1023.97415,0.450114
1022.04577,0.449658
1020.11738,0.449448
1018.18899,0.449107
1016.26060,0.448549
1014.33221,0.447770
1012.40382,0.446908
1010.47544,0.446451
1008.54705,0.446399
1006.61866,0.446222
1004.69027,0.445741
1002.76188,0.445317
1000.83350,0.444969
998.90511,0.444279
996.97672,0.443389
995.04833,0.442775
993.11994,0.442496
991.19155,0.442312
989.26317,0.442001
987.33478,0.441637
985.40639,0.441477
983.47800,0.441426
981.54961,0.441104
979.62122,0.440521
977.69284,0.439948
975.76445,0.439351
973.83606,0.438873
971.90767,0.438920
969.97928,0.439176
968.05090,0.438991
966.12251,0.438424
964.19412,0.437721
962.26573,0.436855
960.33734,0.436088
958.40895,0.435955
956.48057,0.436361
954.55218,0.436458
952.62379,0.435855
950.69540,0.435067
948.76701,0.434632
946.83862,0.434432
944.91024,0.433949
942.98185,0.433192
941.05346,0.432677
939.12507,0.432557
937.19668,0.432599
935.26830,0.432372
933.33991,0.431677
931.41152,0.430961
929.48313,0.430520
927.55474,0.430198
925.62635,0.429893
923.69797,0.429651
921.76958,0.429544
919.84119,0.429304
917.91280,0.428643
915.98441,0.428008
914.05602,0.427849
912.12764,0.427811
910.19925,0.427590
908.27086,0.427312
906.34247,0.426816
904.41408,0.426012
902.48570,0.425297
900.55731,0.424902
898.62892,0.424776
896.70053,0.424732
894.77214,0.424359
892.84375,0.423546
890.91537,0.422695
888.98698,0.422015
887.05859,0.421349
885.13020,0.420756
883.20181,0.420348
881.27342,0.419893
879.34504,0.419579
877.41665,0.419877
875.48826,0.420213
873.55987,0.419757
871.63148,0.418838
869.70310,0.418154
867.77471,0.417599
865.84632,0.416884
863.91793,0.416445
861.98954,0.416386
860.06115,0.416163
858.13277,0.415807
856.20438,0.415531
854.27599,0.415237
852.34760,0.414897
850.41921,0.414598
848.49082,0.414374
846.56244,0.413974
844.63405,0.413297
842.70566,0.412584
840.77727,0.412043
838.84888,0.411849
836.92050,0.411922
834.99211,0.411927
833.06372,0.411767
831.13533,0.411547
829.20694,0.411195
827.27855,0.410823
825.35017,0.410757
823.42178,0.410608
821.49339,0.410116
819.56500,0.410087
817.63661,0.410349
815.70822,0.409762
813.77984,0.408762
811.85145,0.408378
809.92306,0.408229
807.99467,0.407423
806.06628,0.406251
804.13790,0.405936
802.20951,0.406249
800.28112,0.406012
798.35273,0.405488
796.42434,0.404959
794.49595,0.403858
792.56757,0.402522
790.63918,0.401738
788.71079,0.401356
786.78240,0.401222
784.85401,0.401411
782.92562,0.401188
780.99724,0.400569
779.06885,0.400463
777.14046,0.400650
775.21207,0.400445
773.28368,0.399640
771.35530,0.398605
769.42691,0.397925
767.49852,0.397656
765.57013,0.397673
763.64174,0.397799
761.71335,0.397621
759.78497,0.397055
757.85658,0.396713
755.92819,0.396848
753.99980,0.396918
752.07141,0.396726
750.14302,0.396431
748.21464,0.396433
746.28625,0.396784
744.35786,0.396454
742.42947,0.395316
740.50108,0.394577
738.57270,0.394526
736.64431,0.394432
734.71592,0.394063
732.78753,0.393779
730.85914,0.393470
728.93075,0.392966
727.00237,0.392869
725.07398,0.393589
723.14559,0.394427
721.21720,0.394102
719.28881,0.392386
717.36042,0.390769
715.43204,0.390260
713.50365,0.390298
711.57526,0.390234
709.64687,0.389781
707.71848,0.389019
705.79010,0.388730
703.86171,0.389322
701.93332,0.389887
700.00493,0.389250
698.07654,0.387694
696.14815,0.386455
694.21977,0.385785
692.29138,0.385186
690.36299,0.384400
688.43460,0.383647
686.50621,0.383152
684.57782,0.382582
682.64944,0.381924
680.72105,0.381536
678.79266,0.381531
676.86427,0.381869
674.93588,0.382210
673.00750,0.381883
671.07911,0.378981
669.15072,0.373377
667.22233,0.372753
665.29394,0.378402
663.36555,0.382016
661.43717,0.382331
659.50878,0.381306
657.58039,0.380451
655.65200,0.380383
653.72361,0.380698
651.79522,0.380734
649.86684,0.380267
647.93845,0.379493
646.01006,0.379162
644.08167,0.379956
642.15328,0.381142
640.22490,0.381454
638.29651,0.380852
636.36812,0.379768
634.43973,0.379043
632.51134,0.379798
630.58295,0.381030
628.65457,0.380771
626.72618,0.379601
624.79779,0.379280
622.86940,0.379499
620.94101,0.379252
619.01262,0.378807
617.08424,0.378984
615.15585,0.380447
613.22746,0.381884
611.29907,0.381148
609.37068,0.378230
607.44229,0.374577
605.51391,0.373049
603.58552,0.374669
601.65713,0.376744
599.72874,0.377952
